/* Initial Dimensionless Superdroplets Data
 N0 = 1000000.0[m^-3],  R0 = 1e-06[m],  RHO_SOL = 1724.9997483263212[Kg m^-3]
eps,           r,           m_sol */
0.00018200000000,0.01017419366181,0.00760987714215
0.00027600000000,0.01053173687130,0.00844068407331
0.00041500000000,0.01090184492385,0.00936219419771
0.00062000000000,0.01128495937528,0.01038431001969
0.00092100000000,0.01168153729861,0.01151801514772
0.00135600000000,0.01209205182943,0.01277549232366
0.00198200000000,0.01251699273032,0.01417025433798
0.00287700000000,0.01295686697517,0.01571728923755
0.00414600000000,0.01341219935405,0.01743322138649
0.00593100000000,0.01388353309929,0.01933649011079
0.00842300000000,0.01437143053356,0.02144754784645
0.01187600000000,0.01487647374079,0.02378907992042
0.01662200000000,0.01539926526059,0.02638624832600
0.02309800000000,0.01594042880712,0.02926696211245
0.03186300000000,0.01650061001320,0.03246217729437
0.04363800000000,0.01708047720060,0.03600622950350
0.05933100000000,0.01768072217734,0.03993720295784
0.08008500000000,0.01830206106311,0.04429733971286
0.10731600000000,0.01894523514357,0.04913349359263
0.14276800000000,0.01961101175476,0.05449763367880
0.18855700000000,0.02030018519860,0.06044740276792
0.24723300000000,0.02101357769047,0.06704673679820
0.32182200000000,0.02175204034020,0.07436655190209
0.41588700000000,0.02251645416745,0.08248550646770
0.53356100000000,0.02330773115283,0.09149084639814
0.67958000000000,0.02412681532592,0.10147934265186
0.85930200000000,0.02497468389154,0.11255833113883
1.07869700000000,0.02585234839562,0.12484686614715
1.34431900000000,0.02676085593199,0.13847699969486
1.66323500000000,0.02770129039164,0.15359520055463
2.04293100000000,0.02867477375581,0.17036392820038
2.49116500000000,0.02968246743463,0.18896337858903
3.01578100000000,0.03072557365267,0.20959342053785
3.62448200000000,0.03180533688330,0.23247574350528
4.32454800000000,0.03292304533334,0.25785623985546
5.12252600000000,0.03408003248004,0.28600764720594
6.02388000000000,0.03527767866189,0.31723247925328
7.03262000000000,0.03651741272548,0.35186627657099
8.15092000000000,0.03780071373018,0.39028121231270
9.37874800000000,0.03912911271269,0.43289009156733
10.71351000000000,0.04050419451365,0.48015078734311
12.14975100000000,0.04192759966846,0.53257116084939
13.67891500000000,0.04340102636447,0.59071451894921
15.28919500000000,0.04492623246703,0.65520566742830
16.96548500000000,0.04650503761666,0.72673762512867
18.68945500000000,0.04813932540001,0.80607907109633
20.43975400000000,0.04983104559705,0.89408260477015
22.19235500000000,0.05158221650723,0.99169390797526
23.92102600000000,0.05339492735742,1.09996190717531
25.59793400000000,0.05527134079444,1.22005004518685
27.19435200000000,0.05721369546523,1.35324878348101
28.68145600000000,0.05922430868761,1.50098946942162
30.03117800000000,0.06130557921498,1.66485971745653
31.21707600000000,0.06345999009813,1.84662046954766
32.21519600000000,0.06569011164763,2.04822491817029
33.00486900000000,0.06799860450033,2.27183949522738
33.56942800000000,0.07038822279365,2.51986715242466
33.89678900000000,0.07286181745132,2.79497318327641
33.97988200000000,0.07542233958476,3.10011386422398
33.81690600000000,0.07807284401379,3.43856822264304
33.41139100000000,0.08081649291125,3.81397327311729
32.77207400000000,0.08365655957558,4.23036310062560
31.91258600000000,0.08659643233601,4.69221221062928
30.85096500000000,0.08963961859499,5.20448361189671
29.60903100000000,0.09278974901273,5.77268214876173
28.21163900000000,0.09605058183867,6.40291365592135
26.68585600000000,0.09942600739530,7.10195057144766
25.06009100000000,0.10292005271944,7.87730471308816
23.36322800000000,0.10653688636676,8.73730799990519
21.62378600000000,0.11028082338496,9.69120198668554
19.86915100000000,0.11415633046188,10.74923717325254
18.12489900000000,0.11816803125448,11.92278315585412
16.41423100000000,0.12232071190499,13.22445080430815
14.75754700000000,0.12661932675109,14.66822777781520
13.17214500000000,0.13106900423661,16.26962883568498
11.67206100000000,0.13567505302999,18.04586255820873
10.26803300000000,0.14044296835779,20.01601626925183
8.96758800000000,0.14537843856077,22.20126114773661
7.77522100000000,0.15048735188025,24.62507973213319
6.69265600000000,0.15577580348316,27.31351826271071
5.71917000000000,0.16125010273377,30.29546657320837
4.85194800000000,0.16691678072111,33.60296853962661
4.08646700000000,0.17278259805079,37.27156642220861
3.41687000000000,0.17885455291078,41.34068280089353
2.83633600000000,0.18513988942053,45.85404420850259
2.33741400000000,0.19164610627354,50.86015101400008
1.91232700000000,0.19838096568365,56.41279860517133
1.55323600000000,0.20535250264571,62.57165547132591
1.25245300000000,0.21256903452171,69.40290439807050
1.00261500000000,0.22003917096374,76.97995366440389
0.79681100000000,0.22777182418573,85.38422588462335
0.62867400000000,0.23577621959613,94.70603297190019
0.49242900000000,0.24406190680420,105.04554662584219
0.38292300000000,0.25263877101319,116.51387477285644
0.29561600000000,0.26151704481380,129.23425552668951
0.22656400000000,0.27070732039214,143.34338149938964
0.17238700000000,0.28022056216667,158.99286869367339
0.13021700000000,0.29006811986931,176.35088576134424
0.09765100000000,0.30026174208613,195.60396113569973
0.07270000000000,0.31081359027395,216.95898745728351
0.05373300000000,0.32173625326956,240.64544483244995
0.03942700000000,0.33304276230875,266.91786681577230
0.02872100000000,0.34474660657315,296.05857561561834
0.02077100000000,0.35686174928348,328.38071591530286
0.01491300000000,0.36940264435828,364.23161991109089
0.01062900000000,0.38238425365811,403.99653972760922
0.00752100000000,0.39582206483572,448.10278731901991
0.00528400000000,0.40973210981354,497.02432634314079
0.00368500000000,0.42413098391049,551.28686535257214
0.00255100000000,0.43903586564094,611.47350703403049
0.00175300000000,0.45446453720951,678.23101420232308
0.00119600000000,0.47043540572598,752.27675988309204
0.00081000000000,0.48696752516586,834.40643616952605
0.00054500000000,0.50408061910267,925.50260469209229
0.00036400000000,0.52179510423900,1026.54418058422220
0.00024100000000,0.54013211476463,1138.61695185819644
0.00015800000000,0.55911352757056,1262.92524723195311
0.00010300000000,0.57876198834912,1400.80487778872339
0.00006700000000,0.59910093861135,1553.73749153997665
0.00004300000000,0.62015464365378,1723.36649514511919
0.00002700000000,0.64194822150803,1911.51471388199843
0.00001700000000,0.66450767290778,2120.20397964142603
0.00001100000000,0.68785991230881,2351.67685743738548
0.00000600000000,0.71203279999920,2608.42074390497419
0.00000400000000,0.73705517533793,2893.19459674741347
0.00000200000000,0.76295689116153,3209.05858236548784
0.00000100000000,0.78976884939989,3559.40696026147998
0.00000000000000,0.81752303794365,3948.00455759172974
0.00000000000000,0.84625256880727,4379.02722582192291
0.00000000000000,0.87599171763312,4857.10671423005351
0.00000000000000,0.90677596458391,5387.38044246591471
0.00000000000000,0.93864203667214,5975.54670702040039
0.00000000000000,0.97162795157711,6627.92591485119738
0.00000000000000,1.00577306300174,7351.52850217795640
0.00000000000000,1.04111810762334,8154.13026829950559
0.00000000000000,1.07770525369432,9044.35593396665172
0.00000000000000,1.11557815135085,10031.77182222486044
0.00000000000000,1.15478198468946,11126.98865767081770
0.00000000000000,1.19536352567372,12341.77558879884964
0.00000000000000,1.23737118993535,13689.18665871597477
0.00000000000000,1.28085509453628,15183.70108327380876
0.00000000000000,1.32586711776056,16841.37884403973658
0.00000000000000,1.37246096100756,18680.03326810188082
0.00000000000000,1.42069221286018,20719.42244924239276
0.00000000000000,1.47061841540456,22981.46156748207068
0.00000000000000,1.52229913288042,25490.45838857187482
0.00000000000000,1.57579602274392,28273.37447409812376
0.00000000000000,1.63117290922783,31360.11490915246031
0.00000000000000,1.68849585948675,34783.84966096683638
0.00000000000000,1.74783326241822,38581.37002181821299
0.00000000000000,1.80925591025382,42793.48396652052907
0.00000000000000,1.87283708301755,47465.45467299991287
0.00000000000000,1.93865263595221,52647.48691827052971
0.00000000000000,2.00678109001819,58395.26657660237834
0.00000000000000,2.07730372557256,64770.55901730190089
0.00000000000000,2.15030467934026,71841.87283245826256
0.00000000000000,2.22587104479301,79685.19602704675344
0.00000000000000,2.30409297605585,88384.81258244777564
0.00000000000000,2.38506379546511,98034.20816813838610
0.00000000000000,2.46888010490621,108737.07473429065431
0.00000000000000,2.55564190106414,120608.42478058068082
0.00000000000000,2.64545269472405,133775.82727508971584
0.00000000000000,2.73841963426436,148380.77850442245835
0.00000000000000,2.83465363348967,164580.22258613395388
0.00000000000000,2.93426950395597,182548.23798281987547
0.00000000000000,3.03738609194610,202477.90814107100596
0.00000000000000,3.14412642025879,224583.39635708971764
0.00000000000000,3.25461783498045,249102.24716537745553
0.00000000000000,3.36899215741490,276297.93898110644659
0.00000000000000,3.48738584135218,306462.71542675071396
0.00000000000000,3.60994013586416,339920.72576827986632
0.00000000000000,3.73680125382115,377031.50820789294085
0.00000000000000,3.86812054633052,418193.85346459620632
0.00000000000000,4.00405468330546,463850.09016046480974
0.00000000000000,4.14476584037939,514490.83806318155257
0.00000000000000,4.29042189238885,570660.28026292694267
0.00000000000000,4.44119661365588,632962.01093822158873
0.00000000000000,4.59726988530872,702065.52155052335002
0.00000000000000,4.75882790988817,778713.39516790269408
0.00000000000000,4.92606343349577,863729.28622771543451
0.00000000000000,5.09917597574870,958026.77148835151456
0.00000000000000,5.27837206781577,1062619.16728202579543
0.00000000000000,5.46386549881854,1178630.41856432729401
0.00000000000000,5.65587757089154,1307307.17677373369224
0.00000000000000,5.85463736320577,1450032.19628921570256
0.00000000000000,6.06038200527066,1608339.19344362406991
0.00000000000000,6.27335695984038,1783929.32776710996404
0.00000000000000,6.49381631576211,1978689.48256726306863
0.00000000000000,6.72202309111566,2194712.54128819936886
0.00000000000000,6.95824954700605,2434319.87753741210327
0.00000000000000,7.20277751238340,2700086.30045714834705
0.00000000000000,7.45589872027780,2994867.72350209625438
0.00000000000000,7.71791515585011,3321831.85395076451823
0.00000000000000,7.98913941667403,3684492.23293859651312
0.00000000000000,8.26989508567930,4086745.99180541839451
0.00000000000000,8.56051711720094,4532915.73048515245318
0.00000000000000,8.86135223659500,5027795.96796090062708
0.00000000000000,9.17275935389779,5576704.66394007392228
0.00000000000000,9.49510999202198,6185540.36539869941771
0.00000000000000,9.82878873000031,6860845.59208922274411
